#Point No.	Frequency Set (GHz)	THz Photocurrent (nA)	Frequency Act (GHz)
1	900.000	-5.704	899.999
2	900.030	-5.673	900.001
3	900.030	-5.715	899.999
4	900.060	-5.576	900.009
5	900.090	-5.471	900.017
6	900.120	-5.270	900.027
7	900.150	-5.017	900.046
8	900.180	-4.812	900.060
9	900.210	-4.603	900.081
10	900.240	-4.410	900.103
11	900.270	-4.176	900.126
12	900.300	-3.977	900.146
13	900.330	-3.758	900.175
14	900.360	-3.446	900.200
15	900.390	-3.247	900.227
16	900.420	-2.797	900.255
17	900.450	-2.326	900.281
18	900.480	-1.926	900.310
19	900.510	-1.705	900.339
20	900.540	-1.197	900.371
21	900.570	-0.567	900.401
22	900.600	0.113	900.428
23	900.630	0.673	900.459
24	900.660	1.077	900.487
25	900.690	1.366	900.521
26	900.720	1.699	900.548
27	900.750	1.944	900.581
28	900.780	2.187	900.607
29	900.810	2.440	900.640
30	900.840	2.765	900.666
31	900.870	3.094	900.695
32	900.900	3.379	900.731
33	900.930	3.791	900.759
34	900.960	4.335	900.790
35	900.990	4.767	900.817
36	901.020	5.096	900.849
37	901.050	5.315	900.877
38	901.080	5.571	900.911
39	901.110	5.829	900.940
40	901.140	5.958	900.968
41	901.170	6.008	900.999
42	901.200	6.073	901.029
43	901.230	6.238	901.060
44	901.260	6.357	901.090
45	901.290	6.500	901.121
46	901.320	6.596	901.153
47	901.350	6.738	901.176
48	901.380	6.782	901.213
49	901.410	6.670	901.242
50	901.440	6.512	901.274
51	901.470	6.258	901.303
52	901.500	5.978	901.332
53	901.530	5.601	901.364
54	901.560	5.403	901.392
55	901.590	5.347	901.422
56	901.620	5.262	901.449
57	901.650	5.107	901.481
58	901.680	4.729	901.508
59	901.710	4.400	901.545
60	901.740	4.053	901.573
61	901.770	3.455	901.601
62	901.800	2.704	901.631
63	901.830	1.954	901.662
64	901.860	1.283	901.690
65	901.890	0.709	901.721
66	901.920	0.129	901.752
67	901.950	-0.393	901.782
68	901.980	-0.834	901.810
69	902.010	-1.129	901.839
70	902.040	-1.527	901.869
71	902.070	-1.870	901.902
72	902.100	-2.121	901.931
73	902.130	-2.406	901.961
74	902.160	-2.677	901.994
75	902.190	-2.958	902.022
76	902.220	-3.324	902.047
77	902.250	-3.694	902.083
78	902.280	-4.254	902.114
79	902.310	-4.773	902.142
80	902.340	-5.257	902.173
81	902.370	-5.534	902.203
82	902.400	-5.757	902.233
83	902.430	-5.772	902.260
84	902.460	-5.573	902.288
85	902.490	-5.580	902.326
86	902.520	-5.748	902.350
87	902.550	-5.870	902.384
88	902.580	-6.263	902.412
89	902.610	-6.601	902.444
90	902.640	-6.700	902.467
91	902.670	-6.874	902.503
92	902.700	-6.886	902.529
93	902.730	-6.923	902.560
94	902.760	-7.148	902.590
95	902.790	-7.261	902.618
96	902.820	-7.418	902.649
97	902.850	-7.209	902.681
98	902.880	-6.917	902.710
99	902.910	-6.601	902.741
100	902.940	-6.319	902.772
101	902.970	-6.007	902.801
102	903.000	-5.605	902.827
103	903.030	-5.101	902.862
104	903.060	-4.604	902.890
105	903.090	-4.144	902.922
106	903.120	-3.744	902.952
107	903.150	-3.215	902.980
108	903.180	-2.685	903.011
109	903.210	-2.208	903.043
110	903.240	-1.509	903.074
111	903.270	-0.875	903.100
112	903.300	-0.309	903.130
113	903.330	0.303	903.161
114	903.360	1.059	903.194
115	903.390	1.841	903.223
116	903.420	2.872	903.248
117	903.450	3.763	903.281
118	903.480	4.649	903.311
119	903.510	5.414	903.346
120	903.540	6.152	903.370
121	903.570	6.869	903.399
122	903.600	7.291	903.430
123	903.630	7.613	903.459
124	903.660	7.850	903.491
125	903.690	8.026	903.521
126	903.720	8.255	903.552
127	903.750	8.330	903.582
128	903.780	8.462	903.611
129	903.810	8.379	903.644
130	903.840	8.447	903.670
131	903.870	8.446	903.700
132	903.900	8.571	903.729
133	903.930	8.816	903.759
134	903.960	8.918	903.793
135	903.990	8.811	903.822
136	904.020	8.448	903.849
137	904.050	8.047	903.878
138	904.080	7.511	903.912
139	904.110	6.810	903.940
140	904.140	5.922	903.967
141	904.170	5.119	904.003
142	904.200	4.493	904.033
143	904.230	3.922	904.060
144	904.260	3.430	904.089
145	904.290	3.000	904.122
146	904.320	2.793	904.155
147	904.350	2.748	904.181
148	904.380	2.539	904.209
149	904.410	2.165	904.239
150	904.440	1.700	904.273
151	904.470	1.096	904.300
152	904.500	0.254	904.331
153	904.530	-0.541	904.361
154	904.560	-1.395	904.394
155	904.590	-2.272	904.423
156	904.620	-3.162	904.452
157	904.650	-4.073	904.482
158	904.680	-4.695	904.511
159	904.710	-5.153	904.542
160	904.740	-5.357	904.574
161	904.770	-5.466	904.601
162	904.800	-5.495	904.632
163	904.830	-5.545	904.659
164	904.860	-5.457	904.690
165	904.890	-5.654	904.724
166	904.920	-5.917	904.750
167	904.950	-6.242	904.782
168	904.980	-6.534	904.810
169	905.010	-6.795	904.841
170	905.040	-7.015	904.873
171	905.070	-7.134	904.899
172	905.100	-7.181	904.929
173	905.130	-7.143	904.963
174	905.160	-7.122	904.989
175	905.190	-7.008	905.021
176	905.220	-6.593	905.052
177	905.250	-6.293	905.079
178	905.280	-5.892	905.111
179	905.310	-5.705	905.140
180	905.340	-5.568	905.171
181	905.370	-5.463	905.205
182	905.400	-5.459	905.232
183	905.430	-5.378	905.262
184	905.460	-5.211	905.291
185	905.490	-5.030	905.320
186	905.520	-4.775	905.352
187	905.550	-4.481	905.384
188	905.580	-4.099	905.412
189	905.610	-3.667	905.442
190	905.640	-3.336	905.469
191	905.670	-2.858	905.503
192	905.700	-2.400	905.533
193	905.730	-1.747	905.561
194	905.760	-1.116	905.592
195	905.790	-0.639	905.620
196	905.820	-0.125	905.654
197	905.850	0.465	905.679
198	905.880	1.009	905.712
199	905.910	1.582	905.741
200	905.940	1.934	905.771
201	905.970	2.448	905.805
202	906.000	2.891	905.831
203	906.030	3.406	905.861
204	906.060	3.907	905.894
205	906.090	4.406	905.919
206	906.120	4.702	905.952
207	906.150	5.004	905.979
208	906.180	5.352	906.011
209	906.210	5.876	906.042
210	906.240	6.471	906.072
211	906.270	6.983	906.102
212	906.300	7.419	906.132
213	906.330	7.681	906.164
214	906.360	7.839	906.192
215	906.390	7.915	906.222
216	906.420	7.890	906.252
217	906.450	7.793	906.281
218	906.480	7.735	906.311
219	906.510	7.607	906.337
220	906.540	7.352	906.373
221	906.570	7.161	906.397
222	906.600	6.790	906.432
223	906.630	6.704	906.462
224	906.660	6.660	906.487
225	906.690	6.577	906.523
226	906.720	6.575	906.551
227	906.750	6.386	906.579
228	906.780	5.971	906.610
229	906.810	5.409	906.641
230	906.840	4.712	906.671
231	906.870	3.969	906.701
232	906.900	3.303	906.734
233	906.930	2.618	906.761
234	906.960	2.005	906.790
235	906.990	1.491	906.821
236	907.020	1.021	906.850
237	907.050	0.546	906.881
238	907.080	0.001	906.913
239	907.110	-0.495	906.943
240	907.140	-1.281	906.973
241	907.170	-1.701	907.001
242	907.200	-1.930	907.028
243	907.230	-2.293	907.061
244	907.260	-2.490	907.092
245	907.290	-3.013	907.121
246	907.320	-3.597	907.148
247	907.350	-4.099	907.180
248	907.380	-4.765	907.212
249	907.410	-5.343	907.242
250	907.440	-5.872	907.268
251	907.470	-6.400	907.301
252	907.500	-6.784	907.331
253	907.530	-7.085	907.361
254	907.560	-7.317	907.389
255	907.590	-7.317	907.422
256	907.620	-7.353	907.451
257	907.650	-7.398	907.481
258	907.680	-7.417	907.509
259	907.710	-7.285	907.543
260	907.740	-7.159	907.570
261	907.770	-7.179	907.599
262	907.800	-7.234	907.630
263	907.830	-7.319	907.661
264	907.860	-7.410	907.690
265	907.890	-7.419	907.722
266	907.920	-7.452	907.749
267	907.950	-7.387	907.778
268	907.980	-6.995	907.809
269	908.010	-6.187	907.840
270	908.040	-5.599	907.871
271	908.070	-4.785	907.899
272	908.100	-3.986	907.934
273	908.130	-3.543	907.956
274	908.160	-3.139	907.991
275	908.190	-2.752	908.024
276	908.220	-2.231	908.047
277	908.250	-1.680	908.080
278	908.280	-1.296	908.109
279	908.310	-0.903	908.144
280	908.340	-0.481	908.170
281	908.370	0.119	908.201
282	908.400	0.698	908.228
283	908.430	1.336	908.260
284	908.460	1.951	908.291
285	908.490	2.599	908.320
286	908.520	3.209	908.352
287	908.550	3.766	908.381
288	908.580	4.146	908.415
289	908.610	4.483	908.442
290	908.640	4.672	908.473
291	908.670	4.787	908.501
292	908.700	5.036	908.530
293	908.730	5.192	908.564
294	908.760	5.347	908.590
295	908.790	5.397	908.621
296	908.820	5.609	908.655
297	908.850	5.820	908.682
298	908.880	6.041	908.707
299	908.910	6.385	908.742
300	908.940	6.685	908.773
301	908.970	7.099	908.802
302	909.000	7.449	908.833
303	909.030	7.765	908.863
304	909.060	7.918	908.895
305	909.090	7.883	908.923
306	909.120	7.620	908.951
307	909.150	7.354	908.983
308	909.180	6.884	909.011
309	909.210	6.438	909.039
310	909.240	6.041	909.072
311	909.270	5.540	909.101
312	909.300	5.058	909.131
313	909.330	4.598	909.161
314	909.360	4.196	909.192
315	909.390	3.804	909.224
316	909.420	3.413	909.253
317	909.450	3.022	909.280
318	909.480	2.627	909.311
319	909.510	2.357	909.341
320	909.540	1.857	909.373
321	909.570	1.199	909.398
322	909.600	0.622	909.429
323	909.630	-0.060	909.463
324	909.660	-0.682	909.489
325	909.690	-1.255	909.519
326	909.720	-1.702	909.551
327	909.750	-2.055	909.579
328	909.780	-2.313	909.612
329	909.810	-2.533	909.642
330	909.840	-2.678	909.671
331	909.870	-2.848	909.699
332	909.900	-3.126	909.732
333	909.930	-3.413	909.760
334	909.960	-3.648	909.792
335	909.990	-3.819	909.824
336	910.020	-4.061	909.849
337	910.050	-4.291	909.881
338	910.080	-4.567	909.912
339	910.110	-4.853	909.943
340	910.140	-5.086	909.971
341	910.170	-5.488	910.000
342	910.200	-5.930	910.033
343	910.230	-6.160	910.060
344	910.260	-6.416	910.090
345	910.290	-6.353	910.114
346	910.320	-6.243	910.151
347	910.350	-6.107	910.181
348	910.380	-6.091	910.212
349	910.410	-6.229	910.243
350	910.440	-6.383	910.269
351	910.470	-6.414	910.304
352	910.500	-6.254	910.330
353	910.530	-5.935	910.365
354	910.560	-5.639	910.391
355	910.590	-5.331	910.423
356	910.620	-5.052	910.451
357	910.650	-4.901	910.482
358	910.680	-4.631	910.513
359	910.710	-4.518	910.541
360	910.740	-4.208	910.568
361	910.770	-3.853	910.604
362	910.800	-3.540	910.634
363	910.830	-3.410	910.660
364	910.860	-3.294	910.694
365	910.890	-3.090	910.722
366	910.920	-2.914	910.749
367	910.950	-2.472	910.784
368	910.980	-1.833	910.814
369	911.010	-1.249	910.841
370	911.040	-0.614	910.870
371	911.070	0.059	910.901
372	911.100	0.754	910.929
373	911.130	1.255	910.959
374	911.160	1.573	910.989
375	911.190	1.810	911.021
376	911.220	2.119	911.052
377	911.250	2.654	911.082
378	911.280	3.261	911.109
379	911.310	3.821	911.142
380	911.340	4.531	911.169
381	911.370	5.200	911.207
382	911.400	5.681	911.233
383	911.430	6.300	911.259
384	911.460	6.893	911.294
385	911.490	7.577	911.322
386	911.520	8.223	911.353
387	911.550	8.909	911.379
388	911.580	9.412	911.408
389	911.610	9.671	911.443
390	911.640	9.518	911.470
391	911.670	9.235	911.500
392	911.700	9.025	911.531
393	911.730	8.826	911.559
394	911.760	8.745	911.590
395	911.790	8.710	911.626
396	911.820	8.494	911.652
397	911.850	8.242	911.683
398	911.880	7.879	911.711
399	911.910	7.401	911.742
400	911.940	6.754	911.772
401	911.970	6.160	911.803
402	912.000	5.479	911.830
403	912.030	4.780	911.862
404	912.060	4.107	911.891
405	912.090	3.372	911.920
406	912.120	2.546	911.951
407	912.150	1.728	911.982
408	912.180	1.020	912.010
409	912.210	0.518	912.040
410	912.240	0.217	912.071
411	912.270	-0.080	912.098
412	912.300	-0.495	912.132
413	912.330	-0.992	912.159
414	912.360	-1.699	912.194
415	912.390	-2.429	912.219
416	912.420	-3.051	912.251
417	912.450	-3.766	912.283
418	912.480	-4.263	912.310
419	912.510	-4.868	912.342
420	912.540	-5.479	912.373
421	912.570	-6.280	912.402
422	912.600	-7.133	912.429
423	912.630	-7.889	912.458
424	912.660	-8.328	912.491
425	912.690	-8.524	912.521
426	912.720	-8.491	912.556
427	912.750	-8.406	912.580
428	912.780	-8.371	912.612
429	912.810	-8.383	912.640
430	912.840	-8.498	912.674
431	912.870	-8.544	912.702
432	912.900	-8.502	912.732
433	912.930	-8.326	912.760
434	912.960	-8.107	912.794
435	912.990	-7.877	912.822
436	913.020	-7.662	912.850
437	913.050	-7.507	912.881
438	913.080	-7.270	912.911
439	913.110	-7.004	912.942
440	913.140	-6.400	912.970
441	913.170	-5.785	913.001
442	913.200	-5.035	913.031
443	913.230	-4.367	913.061
444	913.260	-3.585	913.090
445	913.290	-3.051	913.122
446	913.320	-2.538	913.150
447	913.350	-2.149	913.181
448	913.380	-1.646	913.212
449	913.410	-1.070	913.243
450	913.440	-0.456	913.269
451	913.470	0.072	913.305
452	913.500	0.472	913.333
453	913.530	0.856	913.364
454	913.560	1.111	913.393
455	913.590	1.607	913.422
456	913.620	2.235	913.450
457	913.650	2.873	913.483
458	913.680	3.525	913.516
459	913.710	4.131	913.540
460	913.740	4.723	913.572
461	913.770	5.151	913.605
462	913.800	5.320	913.632
463	913.830	5.571	913.662
464	913.860	5.639	913.692
465	913.890	5.790	913.720
466	913.920	5.995	913.754
467	913.950	6.148	913.781
468	913.980	6.252	913.810
469	914.010	6.247	913.840
470	914.040	6.199	913.871
471	914.070	6.162	913.905
472	914.100	6.276	913.931
473	914.130	6.382	913.963
474	914.160	6.524	913.993
475	914.190	6.609	914.020
476	914.220	6.572	914.051
477	914.250	6.397	914.082
478	914.280	6.060	914.110
479	914.310	5.687	914.139
480	914.340	5.299	914.174
481	914.370	4.919	914.199
482	914.400	4.689	914.232
483	914.430	4.484	914.260
484	914.460	4.395	914.289
485	914.490	4.221	914.324
486	914.520	3.989	914.352
487	914.550	3.780	914.383
488	914.580	3.519	914.410
489	914.610	3.358	914.445
490	914.640	3.200	914.469
491	914.670	3.006	914.501
492	914.700	2.730	914.530
493	914.730	2.329	914.559
494	914.760	1.867	914.590
495	914.790	1.136	914.620
496	914.820	0.492	914.650
497	914.850	-0.046	914.681
498	914.880	-0.546	914.709
499	914.910	-0.969	914.740
500	914.940	-1.343	914.775
501	914.970	-1.741	914.801
502	915.000	-2.362	914.829
503	915.030	-2.957	914.860
504	915.060	-3.523	914.890
505	915.090	-4.030	914.923
506	915.120	-4.411	914.948
507	915.150	-4.813	914.984
508	915.180	-5.140	915.012
509	915.210	-5.531	915.039
510	915.240	-5.967	915.073
511	915.270	-6.249	915.104
512	915.300	-6.547	915.129
513	915.330	-6.755	915.159
514	915.360	-6.749	915.195
515	915.390	-6.838	915.224
516	915.420	-6.725	915.251
517	915.450	-6.522	915.282
518	915.480	-6.410	915.311
519	915.510	-6.130	915.341
520	915.540	-5.939	915.371
521	915.570	-5.760	915.399
522	915.600	-5.538	915.433
523	915.630	-5.420	915.460
524	915.660	-5.347	915.490
525	915.690	-5.281	915.523
526	915.720	-5.080	915.548
527	915.750	-4.978	915.581
528	915.780	-4.851	915.609
529	915.810	-4.854	915.641
530	915.840	-4.788	915.672
531	915.870	-4.604	915.700
532	915.900	-4.109	915.730
533	915.930	-3.685	915.763
534	915.960	-3.331	915.792
535	915.990	-2.793	915.823
536	916.020	-2.205	915.850
537	916.050	-1.653	915.883
538	916.080	-1.096	915.910
539	916.110	-0.672	915.938
540	916.140	-0.298	915.968
541	916.170	0.100	916.003
542	916.200	0.496	916.030
543	916.230	0.797	916.064
544	916.260	1.208	916.092
545	916.290	1.665	916.118
546	916.320	2.220	916.154
547	916.350	2.725	916.181
548	916.380	3.482	916.212
549	916.410	4.129	916.244
550	916.440	4.811	916.273
551	916.470	5.312	916.301
552	916.500	5.736	916.328
553	916.530	6.094	916.364
554	916.560	6.321	916.391
555	916.590	6.247	916.422
556	916.620	6.057	916.452
557	916.650	5.875	916.480
558	916.680	5.955	916.512
559	916.710	6.058	916.546
560	916.740	6.245	916.573
561	916.770	6.500	916.601
562	916.800	6.861	916.630
563	916.830	7.157	916.658
564	916.860	7.520	916.690
565	916.890	7.579	916.721
566	916.920	7.586	916.751
567	916.950	7.394	916.785
568	916.980	7.006	916.813
569	917.010	6.605	916.840
570	917.040	6.097	916.874
571	917.070	5.569	916.900
572	917.100	5.092	916.932
573	917.130	4.603	916.959
574	917.160	4.050	916.991
575	917.190	3.590	917.019
576	917.220	3.147	917.051
577	917.250	2.815	917.083
578	917.280	2.424	917.114
579	917.310	1.965	917.140
580	917.340	1.272	917.173
581	917.370	0.577	917.202
582	917.400	-0.299	917.233
583	917.430	-1.069	917.260
584	917.460	-1.809	917.290
585	917.490	-2.483	917.320
586	917.520	-3.005	917.351
587	917.550	-3.327	917.381
588	917.580	-3.574	917.412
589	917.610	-3.924	917.439
590	917.640	-4.166	917.472
591	917.670	-4.329	917.504
592	917.700	-4.374	917.531
593	917.730	-4.297	917.561
594	917.760	-4.326	917.590
595	917.790	-4.253	917.621
596	917.820	-4.389	917.649
597	917.850	-4.640	917.678
598	917.880	-4.958	917.709
599	917.910	-5.192	917.744
600	917.940	-5.345	917.772
601	917.970	-5.354	917.800
602	918.000	-5.284	917.831
603	918.030	-5.067	917.860
604	918.060	-5.008	917.891
605	918.090	-4.989	917.923
606	918.120	-5.163	917.952
607	918.150	-5.317	917.984
608	918.180	-5.271	918.013
609	918.210	-5.188	918.040
610	918.240	-4.995	918.074
611	918.270	-4.664	918.098
612	918.300	-4.469	918.134
613	918.330	-4.315	918.162
614	918.360	-4.219	918.189
615	918.390	-4.142	918.224
616	918.420	-4.200	918.248
617	918.450	-4.226	918.282
618	918.480	-4.085	918.309
619	918.510	-3.973	918.342
620	918.540	-3.744	918.374
621	918.570	-3.602	918.404
622	918.600	-3.478	918.429
623	918.630	-3.239	918.461
624	918.660	-2.898	918.492
625	918.690	-2.364	918.521
626	918.720	-1.626	918.550
627	918.750	-0.950	918.581
628	918.780	-0.404	918.610
629	918.810	-0.215	918.645
630	918.840	-0.187	918.670
631	918.870	-0.271	918.699
632	918.900	-0.206	918.730
633	918.930	0.059	918.760
634	918.960	0.500	918.793
635	918.990	1.054	918.820
636	919.020	1.788	918.853
637	919.050	2.555	918.884
638	919.080	3.256	918.911
639	919.110	3.924	918.939
640	919.140	4.680	918.970
641	919.170	5.456	919.001
642	919.200	6.222	919.029
643	919.230	6.843	919.059
644	919.260	7.126	919.091
645	919.290	7.126	919.122
646	919.320	6.924	919.151
647	919.350	6.865	919.183
648	919.380	6.971	919.214
649	919.410	7.241	919.242
650	919.440	7.597	919.272
651	919.470	7.937	919.301
652	919.500	8.135	919.333
653	919.530	8.354	919.359
654	919.560	8.456	919.390
655	919.590	8.350	919.422
656	919.620	8.058	919.453
657	919.650	7.774	919.487
658	919.680	7.481	919.508
659	919.710	7.166	919.538
660	919.740	6.601	919.568
661	919.770	6.020	919.602
662	919.800	5.340	919.631
663	919.830	4.696	919.663
664	919.860	4.185	919.694
665	919.890	3.896	919.722
666	919.920	3.583	919.754
667	919.950	3.199	919.777
668	919.980	2.647	919.812
669	920.010	1.992	919.843
670	920.040	1.115	919.875
671	920.070	0.103	919.899
672	920.100	-0.842	919.932
673	920.130	-1.734	919.962
674	920.160	-2.414	919.989
675	920.190	-2.959	920.021
676	920.220	-3.504	920.049
677	920.250	-4.082	920.081
678	920.280	-4.760	920.111
679	920.310	-5.353	920.142
680	920.340	-5.963	920.172
681	920.370	-6.428	920.201
682	920.400	-6.696	920.232
683	920.430	-6.874	920.260
684	920.460	-7.246	920.291
685	920.490	-7.660	920.321
686	920.520	-8.078	920.351
687	920.550	-8.450	920.380
688	920.580	-8.709	920.413
689	920.610	-8.815	920.440
690	920.640	-8.680	920.471
691	920.670	-8.444	920.503
692	920.700	-8.114	920.531
693	920.730	-7.831	920.561
694	920.760	-7.670	920.597
695	920.790	-7.545	920.619
696	920.820	-7.388	920.650
697	920.850	-7.220	920.681
698	920.880	-6.781	920.710
699	920.910	-6.225	920.741
700	920.940	-5.678	920.772
701	920.970	-5.286	920.797
702	921.000	-4.979	920.829
703	921.030	-4.628	920.863
704	921.060	-4.184	920.892
705	921.090	-3.581	920.923
706	921.120	-2.967	920.954
707	921.150	-2.270	920.985
708	921.180	-1.758	921.011
709	921.210	-1.304	921.044
710	921.240	-1.040	921.069
711	921.270	-0.809	921.102
712	921.300	-0.427	921.131
713	921.330	0.090	921.163
714	921.360	0.730	921.192
715	921.390	1.337	921.222
716	921.420	2.048	921.250
717	921.450	2.586	921.278
718	921.480	2.877	921.311
719	921.510	3.277	921.342
720	921.540	3.732	921.369
721	921.570	4.465	921.400
722	921.600	5.228	921.432
723	921.630	5.882	921.459
724	921.660	6.465	921.488
725	921.690	6.859	921.520
726	921.720	7.071	921.552
727	921.750	7.154	921.581
728	921.780	7.232	921.612
