#Point No.	Frequency Set (GHz)	THz Photocurrent (nA)	Frequency Act (GHz)
1	100.000	-588.661	99.999
2	100.050	-580.725	99.995
3	100.100	-584.134	100.000
4	100.150	-552.703	100.011
5	100.150	-509.591	100.027
6	100.200	-471.852	100.047
7	100.250	-445.593	100.076
8	100.300	-413.346	100.097
9	100.350	-378.998	100.137
10	100.400	-331.315	100.171
11	100.450	-248.356	100.204
12	100.500	-149.418	100.247
13	100.550	-82.491	100.287
14	100.600	-61.301	100.328
15	100.650	-68.609	100.377
16	100.700	-3.207	100.417
17	100.750	178.981	100.465
18	100.800	396.265	100.512
19	100.850	486.457	100.565
20	100.900	517.298	100.612
21	100.950	640.075	100.659
22	101.000	942.375	100.709
23	101.050	1272.616	100.758
24	101.100	1309.006	100.808
25	101.150	1274.037	100.862
26	101.200	1249.242	100.911
27	101.250	1285.781	100.961
28	101.300	1117.017	101.012
29	101.350	594.802	101.060
30	101.400	351.488	101.113
31	101.450	326.305	101.169
32	101.500	379.959	101.215
33	101.550	216.504	101.263
34	101.600	-152.591	101.315
35	101.650	-229.929	101.360
36	101.700	-204.244	101.415
37	101.750	-169.765	101.460
38	101.800	-146.517	101.514
39	101.850	-179.995	101.562
40	101.900	-167.202	101.610
41	101.950	-219.013	101.660
42	102.000	-275.129	101.717
43	102.050	-255.384	101.769
44	102.100	-271.060	101.815
45	102.150	-312.863	101.865
46	102.200	-279.701	101.914
47	102.250	-262.588	101.964
48	102.300	-316.335	102.016
49	102.350	-322.808	102.065
50	102.400	-302.659	102.118
51	102.450	-247.599	102.165
52	102.500	-209.176	102.214
53	102.550	-212.682	102.269
54	102.600	-168.376	102.317
55	102.650	-172.311	102.365
56	102.700	-308.695	102.418
57	102.750	-425.968	102.464
58	102.800	-392.740	102.513
59	102.850	-346.824	102.566
60	102.900	-367.403	102.613
61	102.950	-418.064	102.662
62	103.000	-437.521	102.716
63	103.050	-345.129	102.765
64	103.100	-282.502	102.814
65	103.150	-323.035	102.865
66	103.200	-364.528	102.916
67	103.250	-395.576	102.968
68	103.300	-300.558	103.019
69	103.350	-217.898	103.065
70	103.400	-198.539	103.121
71	103.450	-194.962	103.165
72	103.500	-178.771	103.215
73	103.550	6.372	103.267
74	103.600	204.728	103.317
75	103.650	213.292	103.364
76	103.700	168.753	103.415
77	103.750	118.248	103.468
78	103.800	203.319	103.517
79	103.850	386.830	103.564
80	103.900	440.879	103.613
81	103.950	502.553	103.665
82	104.000	551.110	103.715
83	104.050	661.274	103.769
84	104.100	910.015	103.817
85	104.150	1017.980	103.869
86	104.200	1010.909	103.921
87	104.250	977.553	103.965
88	104.300	1018.465	104.018
89	104.350	1133.102	104.069
90	104.400	1042.900	104.121
91	104.450	932.270	104.164
92	104.500	854.320	104.219
93	104.550	847.076	104.271
94	104.600	827.246	104.320
95	104.650	667.475	104.362
96	104.700	327.744	104.419
97	104.750	-13.896	104.469
98	104.800	-272.612	104.515
99	104.850	-546.693	104.565
100	104.900	-871.269	104.612
101	104.950	-1120.386	104.665
102	105.000	-1339.955	104.717
103	105.050	-1496.178	104.768
104	105.100	-1579.532	104.822
105	105.150	-1585.192	104.869
106	105.200	-1379.453	104.917
107	105.250	-1247.428	104.970
108	105.300	-1130.842	105.016
109	105.350	-970.337	105.065
110	105.400	-840.386	105.119
111	105.450	-611.803	105.165
112	105.500	-426.348	105.214
113	105.550	-357.103	105.263
114	105.600	-278.686	105.317
115	105.650	-225.885	105.366
116	105.700	-156.108	105.418
117	105.750	-52.929	105.465
118	105.800	-0.268	105.518
119	105.850	45.727	105.567
120	105.900	204.766	105.613
121	105.950	489.838	105.671
122	106.000	562.562	105.718
123	106.050	532.802	105.772
124	106.100	554.345	105.814
125	106.150	547.200	105.864
126	106.200	571.182	105.912
127	106.250	590.888	105.969
128	106.300	574.634	106.017
129	106.350	556.890	106.065
130	106.400	619.545	106.113
131	106.450	707.022	106.168
132	106.500	792.233	106.217
133	106.550	588.626	106.271
134	106.600	296.390	106.319
135	106.650	169.668	106.367
136	106.700	152.911	106.419
137	106.750	134.209	106.466
138	106.800	128.872	106.518
139	106.850	147.623	106.565
140	106.900	158.435	106.620
141	106.950	189.401	106.671
142	107.000	232.789	106.718
143	107.050	299.865	106.766
144	107.100	368.768	106.816
145	107.150	447.018	106.871
146	107.200	488.890	106.918
147	107.250	520.566	106.968
148	107.300	534.893	107.016
149	107.350	408.594	107.071
150	107.400	180.148	107.116
151	107.450	37.725	107.168
152	107.500	-146.888	107.216
153	107.550	-455.109	107.272
154	107.600	-688.977	107.320
155	107.650	-729.545	107.361
156	107.700	-818.249	107.417
157	107.750	-912.507	107.470
158	107.800	-865.795	107.515
159	107.850	-820.257	107.560
160	107.900	-788.996	107.621
161	107.950	-738.693	107.668
162	108.000	-626.654	107.720
163	108.050	-521.073	107.771
164	108.100	-510.507	107.818
165	108.150	-523.503	107.866
166	108.200	-525.937	107.914
167	108.250	-447.286	107.967
168	108.300	-301.393	108.017
169	108.350	-235.047	108.067
170	108.400	-216.766	108.122
171	108.450	-192.612	108.167
172	108.500	-141.140	108.217
173	108.550	-30.509	108.265
174	108.600	51.850	108.318
175	108.650	32.981	108.372
176	108.700	16.834	108.426
177	108.750	9.050	108.470
178	108.800	130.699	108.516
179	108.850	316.093	108.570
180	108.900	363.965	108.616
181	108.950	373.149	108.667
182	109.000	457.079	108.711
183	109.050	664.244	108.769
184	109.100	757.298	108.821
185	109.150	609.906	108.870
186	109.200	539.747	108.918
187	109.250	567.913	108.969
188	109.300	640.509	109.019
189	109.350	671.150	109.066
190	109.400	577.382	109.122
191	109.450	485.680	109.170
192	109.500	496.067	109.221
193	109.550	554.380	109.267
194	109.600	554.128	109.314
195	109.650	398.603	109.367
196	109.700	247.403	109.419
197	109.750	250.336	109.468
198	109.800	237.005	109.517
199	109.850	118.556	109.565
200	109.900	-56.574	109.619
201	109.950	-121.078	109.669
202	110.000	-68.769	109.721
203	110.050	-37.565	109.767
204	110.100	-93.319	109.818
205	110.150	-176.538	109.869
206	110.200	-235.834	109.918
207	110.250	-201.642	109.968
208	110.300	-166.624	110.019
209	110.350	-228.380	110.073
210	110.400	-427.884	110.118
211	110.450	-541.278	110.163
212	110.500	-616.354	110.215
213	110.550	-693.790	110.262
214	110.600	-752.980	110.320
215	110.650	-774.890	110.370
216	110.700	-771.445	110.418
217	110.750	-767.003	110.465
218	110.800	-696.438	110.517
219	110.850	-608.306	110.568
220	110.900	-535.762	110.616
221	110.950	-485.908	110.669
222	111.000	-414.186	110.719
223	111.050	-249.914	110.772
224	111.100	-224.197	110.821
225	111.150	-217.992	110.869
226	111.200	-175.486	110.919
227	111.250	-24.453	110.966
228	111.300	154.310	111.019
229	111.350	136.558	111.066
230	111.400	3.719	111.116
231	111.450	-90.159	111.165
232	111.500	-119.147	111.218
233	111.550	12.297	111.267
234	111.600	199.643	111.316
235	111.650	250.767	111.369
236	111.700	312.576	111.420
237	111.750	458.376	111.467
238	111.800	646.601	111.520
239	111.850	745.825	111.565
240	111.900	706.889	111.616
241	111.950	706.594	111.669
242	112.000	707.066	111.716
243	112.050	731.142	111.771
244	112.100	757.595	111.816
245	112.150	706.364	111.864
246	112.200	673.902	111.916
247	112.250	654.196	111.970
248	112.300	682.962	112.018
249	112.350	796.440	112.062
250	112.400	780.269	112.121
251	112.450	728.388	112.167
252	112.500	768.060	112.218
253	112.550	779.480	112.266
254	112.600	641.912	112.319
255	112.650	337.683	112.365
256	112.700	199.488	112.420
257	112.750	151.580	112.465
258	112.800	83.680	112.518
259	112.850	-76.608	112.569
260	112.900	-418.620	112.617
261	112.950	-728.006	112.665
262	113.000	-810.363	112.720
263	113.050	-905.407	112.764
264	113.100	-1362.547	112.814
265	113.150	-2106.507	112.868
266	113.200	-2181.639	112.919
267	113.250	-2081.804	112.966
268	113.300	-2276.601	113.018
269	113.350	-2411.504	113.070
270	113.400	-1695.235	113.118
271	113.450	-1017.719	113.167
272	113.500	-702.275	113.220
273	113.550	-292.360	113.271
274	113.600	82.035	113.315
275	113.650	309.056	113.370
276	113.700	479.108	113.416
277	113.750	607.007	113.466
278	113.800	661.772	113.519
279	113.850	645.704	113.572
280	113.900	718.465	113.615
281	113.950	794.662	113.670
282	114.000	835.196	113.718
283	114.050	816.801	113.771
284	114.100	774.034	113.818
285	114.150	773.916	113.868
286	114.200	837.706	113.914
287	114.250	888.442	113.973
288	114.300	868.710	114.018
289	114.350	769.001	114.068
290	114.400	666.530	114.120
291	114.450	547.597	114.167
292	114.500	416.701	114.221
293	114.550	206.080	114.267
294	114.600	72.902	114.319
295	114.650	53.131	114.373
296	114.700	109.455	114.415
297	114.750	230.618	114.469
298	114.800	309.934	114.520
299	114.850	322.170	114.568
300	114.900	349.335	114.617
301	114.950	323.642	114.667
302	115.000	108.548	114.719
303	115.050	-162.821	114.768
304	115.100	-228.033	114.818
305	115.150	-27.272	114.870
306	115.200	-43.983	114.921
307	115.250	-172.162	114.969
308	115.300	-211.527	115.016
309	115.350	-250.238	115.067
310	115.400	-340.672	115.115
311	115.450	-356.195	115.174
312	115.500	-310.182	115.219
313	115.550	-324.762	115.262
314	115.600	-384.912	115.321
315	115.650	-399.222	115.368
316	115.700	-352.848	115.420
317	115.750	-335.814	115.475
318	115.800	-344.901	115.516
319	115.850	-345.979	115.566
320	115.900	-364.466	115.619
321	115.950	-383.592	115.665
322	116.000	-384.279	115.722
323	116.050	-372.144	115.767
324	116.100	-343.050	115.817
325	116.150	-395.018	115.875
326	116.200	-465.530	115.920
327	116.250	-487.268	115.968
328	116.300	-407.680	116.019
329	116.350	-329.252	116.067
330	116.400	-318.097	116.121
331	116.450	-302.742	116.166
332	116.500	-249.175	116.220
333	116.550	-118.304	116.271
334	116.600	-23.941	116.314
335	116.650	13.217	116.366
336	116.700	41.488	116.414
337	116.750	81.842	116.473
338	116.800	230.242	116.520
339	116.850	422.009	116.569
340	116.900	424.023	116.619
341	116.950	400.806	116.672
342	117.000	424.918	116.716
343	117.050	597.924	116.769
344	117.100	757.920	116.822
345	117.150	652.458	116.870
346	117.200	635.232	116.922
347	117.250	661.163	116.967
348	117.300	752.012	117.015
349	117.350	831.878	117.071
350	117.400	598.174	117.118
351	117.450	511.099	117.167
352	117.500	528.535	117.220
353	117.550	601.827	117.268
354	117.600	686.575	117.315
355	117.650	387.592	117.372
356	117.700	176.570	117.417
357	117.750	201.093	117.466
358	117.800	265.037	117.514
359	117.850	223.918	117.565
360	117.900	-80.416	117.617
361	117.950	-259.154	117.668
362	118.000	-248.096	117.718
363	118.050	-301.969	117.774
364	118.100	-368.027	117.819
365	118.150	-581.533	117.865
366	118.200	-725.508	117.920
367	118.250	-618.214	117.968
368	118.300	-565.306	118.021
369	118.350	-573.889	118.071
370	118.400	-673.161	118.121
371	118.450	-713.475	118.171
372	118.500	-612.631	118.218
373	118.550	-513.886	118.269
374	118.600	-547.584	118.318
375	118.650	-613.977	118.369
376	118.700	-759.211	118.416
377	118.750	-773.673	118.465
378	118.800	-672.235	118.513
379	118.850	-624.738	118.569
380	118.900	-642.437	118.617
381	118.950	-528.964	118.667
382	119.000	-222.408	118.725
383	119.050	165.545	118.769
384	119.100	264.715	118.813
385	119.150	304.232	118.866
386	119.200	338.847	118.916
387	119.250	540.123	118.969
388	119.300	672.213	119.015
389	119.350	527.960	119.068
390	119.400	461.535	119.120
391	119.450	547.483	119.166
392	119.500	595.782	119.219
393	119.550	508.685	119.270
394	119.600	353.880	119.322
395	119.650	242.916	119.372
396	119.700	139.628	119.416
397	119.750	106.627	119.468
398	119.800	107.977	119.522
399	119.850	134.198	119.570
400	119.900	148.213	119.617
401	119.950	168.643	119.666
402	120.000	258.333	119.723
403	120.050	338.380	119.765
404	120.100	394.105	119.823
405	120.150	411.429	119.866
406	120.200	428.113	119.918
407	120.250	516.178	119.964
408	120.300	582.933	120.018
409	120.350	589.205	120.071
410	120.400	444.636	120.113
411	120.450	320.851	120.168
412	120.500	351.401	120.217
413	120.550	326.170	120.263
414	120.600	173.432	120.318
415	120.650	7.644	120.371
416	120.700	-97.746	120.421
417	120.750	-127.280	120.465
418	120.800	-148.507	120.522
419	120.850	-134.172	120.566
420	120.900	-148.737	120.619
421	120.950	-222.674	120.670
422	121.000	-327.749	120.716
423	121.050	-440.220	120.773
424	121.100	-603.579	120.817
425	121.150	-809.585	120.871
426	121.200	-921.988	120.917
427	121.250	-942.405	120.969
428	121.300	-989.438	121.020
429	121.350	-1110.430	121.068
430	121.400	-1297.830	121.116
431	121.450	-1347.607	121.173
432	121.500	-1148.448	121.217
433	121.550	-968.951	121.261
434	121.600	-886.299	121.320
435	121.650	-730.437	121.371
436	121.700	-406.035	121.418
437	121.750	-123.020	121.468
438	121.800	89.790	121.512
439	121.850	287.800	121.571
440	121.900	503.054	121.616
441	121.950	664.927	121.662
442	122.000	764.812	121.717
443	122.050	916.035	121.768
444	122.100	976.695	121.821
445	122.150	972.312	121.871
446	122.200	1035.812	121.921
447	122.250	1111.270	121.966
448	122.300	1197.901	122.018
449	122.350	1171.094	122.071
450	122.400	1017.543	122.120
451	122.450	917.327	122.159
452	122.500	797.903	122.216
453	122.550	750.753	122.264
454	122.600	485.722	122.315
455	122.650	109.267	122.367
456	122.700	17.768	122.418
457	122.750	39.448	122.469
458	122.800	16.155	122.519
459	122.850	-256.266	122.569
460	122.900	-576.938	122.619
461	122.950	-512.502	122.673
462	123.000	-416.286	122.719
463	123.050	-386.122	122.768
464	123.100	-456.001	122.817
465	123.150	-471.920	122.873
466	123.200	-329.358	122.921
467	123.250	-209.956	122.967
468	123.300	-159.721	123.017
469	123.350	-146.731	123.070
470	123.400	-131.145	123.116
471	123.450	-88.602	123.163
472	123.500	-58.622	123.221
473	123.550	-104.856	123.268
474	123.600	-150.328	123.314
475	123.650	-230.728	123.364
476	123.700	-314.753	123.420
477	123.750	-277.743	123.474
478	123.800	-106.833	123.513
479	123.850	-15.782	123.566
480	123.900	-102.536	123.618
481	123.950	-235.899	123.668
482	124.000	-354.327	123.721
483	124.050	-336.312	123.769
484	124.100	-307.301	123.817
485	124.150	-273.961	123.867
486	124.200	-271.725	123.915
487	124.250	-197.916	123.966
488	124.300	-106.780	124.019
489	124.350	-107.561	124.067
490	124.400	-143.347	124.114
491	124.450	-223.293	124.170
492	124.500	-322.247	124.220
493	124.550	-337.073	124.268
494	124.600	-278.939	124.317
495	124.650	-158.110	124.369
496	124.700	-79.281	124.420
497	124.750	1.721	124.467
498	124.800	123.480	124.516
499	124.850	253.132	124.569
500	124.900	280.688	124.619
501	124.950	250.102	124.669
502	125.000	297.485	124.719
503	125.050	413.846	124.768
504	125.100	581.437	124.821
505	125.150	570.270	124.870
506	125.200	465.940	124.920
507	125.250	443.930	124.967
508	125.300	487.244	125.018
509	125.350	533.997	125.067
510	125.400	452.824	125.120
511	125.450	311.226	125.171
512	125.500	330.297	125.213
513	125.550	410.828	125.271
514	125.600	511.337	125.318
515	125.650	587.203	125.369
516	125.700	454.771	125.422
517	125.750	401.164	125.471
518	125.800	457.816	125.516
519	125.850	523.438	125.567
520	125.900	481.679	125.617
521	125.950	134.240	125.669
522	126.000	-26.248	125.720
523	126.050	-58.922	125.766
524	126.100	-159.176	125.816
525	126.150	-351.811	125.871
526	126.200	-637.357	125.920
527	126.250	-670.099	125.969
528	126.300	-572.980	126.017
529	126.350	-606.309	126.070
530	126.400	-789.840	126.120
531	126.450	-945.176	126.167
532	126.500	-835.569	126.222
533	126.550	-724.978	126.271
534	126.600	-732.054	126.318
535	126.650	-720.969	126.368
536	126.700	-645.095	126.418
537	126.750	-602.966	126.466
538	126.800	-547.243	126.515
539	126.850	-496.077	126.564
540	126.900	-420.594	126.621
541	126.950	-345.274	126.668
542	127.000	-181.122	126.713
543	127.050	-17.196	126.766
544	127.100	2.459	126.817
545	127.150	-51.120	126.869
546	127.200	37.195	126.921
547	127.250	273.188	126.968
548	127.300	438.167	127.016
549	127.350	476.214	127.066
550	127.400	431.400	127.114
551	127.450	424.506	127.171
552	127.500	549.414	127.217
553	127.550	631.307	127.268
554	127.600	563.304	127.319
555	127.650	462.901	127.371
556	127.700	487.731	127.419
557	127.750	604.915	127.469
558	127.800	567.842	127.515
559	127.850	401.216	127.567
560	127.900	280.711	127.621
561	127.950	194.072	127.665
562	128.000	162.067	127.718
563	128.050	187.325	127.769
564	128.100	208.925	127.816
565	128.150	246.534	127.870
566	128.200	281.519	127.914
567	128.250	304.133	127.970
568	128.300	331.593	128.016
569	128.350	308.240	128.071
570	128.400	209.032	128.120
571	128.450	108.705	128.171
572	128.500	120.129	128.215
573	128.550	117.527	128.265
574	128.600	123.867	128.321
575	128.650	120.756	128.368
576	128.700	65.526	128.419
577	128.750	23.856	128.468
578	128.800	22.861	128.522
579	128.850	-1.123	128.571
580	128.900	-48.775	128.618
581	128.950	-215.731	128.666
582	129.000	-400.166	128.717
583	129.050	-426.785	128.769
584	129.100	-505.007	128.820
585	129.150	-750.609	128.869
586	129.200	-999.820	128.921
587	129.250	-959.421	128.967
588	129.300	-932.122	129.016
589	129.350	-956.317	129.067
590	129.400	-904.312	129.120
591	129.450	-790.317	129.168
592	129.500	-670.592	129.216
593	129.550	-557.458	129.270
594	129.600	-518.284	129.319
595	129.650	-560.760	129.369
596	129.700	-500.142	129.418
597	129.750	-274.048	129.471
598	129.800	-101.559	129.517
599	129.850	-21.285	129.571
600	129.900	70.884	129.620
601	129.950	183.381	129.667
602	130.000	309.071	129.714
603	130.050	441.453	129.767
604	130.100	597.129	129.819
605	130.150	725.868	129.871
606	130.200	827.273	129.914
607	130.250	921.095	129.968
608	130.300	982.561	130.019
609	130.350	1063.820	130.069
610	130.400	956.501	130.117
611	130.450	784.525	130.172
612	130.500	695.408	130.216
613	130.550	658.578	130.271
614	130.600	649.881	130.318
615	130.650	560.399	130.368
616	130.700	383.567	130.420
617	130.750	366.311	130.463
618	130.800	445.224	130.512
619	130.850	430.937	130.570
620	130.900	270.850	130.622
621	130.950	2.688	130.669
622	131.000	-120.328	130.718
623	131.050	-145.882	130.767
624	131.100	-214.861	130.821
625	131.150	-503.688	130.864
626	131.200	-825.111	130.914
627	131.250	-701.817	130.971
628	131.300	-563.963	131.016
629	131.350	-617.277	131.065
630	131.400	-674.509	131.122
631	131.450	-538.823	131.167
632	131.500	-329.777	131.219
633	131.550	-216.198	131.267
634	131.600	-116.711	131.321
635	131.650	-85.395	131.373
636	131.700	-88.300	131.416
637	131.750	-97.523	131.464
638	131.800	-148.997	131.520
639	131.850	-202.638	131.570
640	131.900	-255.618	131.617
641	131.950	-294.273	131.673
642	132.000	-337.260	131.715
643	132.050	-304.236	131.771
644	132.100	-214.899	131.818
645	132.150	-153.694	131.870
646	132.200	-101.317	131.922
647	132.250	-68.641	131.967
648	132.300	-75.521	132.015
649	132.350	-106.896	132.067
650	132.400	-192.344	132.118
651	132.450	-246.433	132.168
652	132.500	-241.241	132.218
653	132.550	-114.561	132.264
654	132.600	-174.921	132.318
655	132.650	-207.483	132.369
656	132.700	-108.988	132.422
657	132.750	-62.958	132.464
658	132.800	75.154	132.517
659	132.850	263.412	132.572
660	132.900	297.375	132.617
661	132.950	233.313	132.668
662	133.000	198.760	132.719
663	133.050	251.268	132.769
664	133.100	369.592	132.819
665	133.150	523.468	132.872
666	133.200	563.240	132.920
667	133.250	582.696	132.969
668	133.300	693.024	133.018
669	133.350	758.712	133.068
670	133.400	672.079	133.117
671	133.450	561.111	133.167
672	133.500	497.371	133.216
673	133.550	446.734	133.272
674	133.600	439.420	133.319
675	133.650	394.187	133.370
676	133.700	271.256	133.422
677	133.750	229.712	133.474
678	133.800	283.620	133.518
679	133.850	314.965	133.570
680	133.900	261.002	133.621
